num crossings	time (s)	maj axis (mm)	min axis (mm)	theta (rad )	slope (V/s)
1999	3263.430896	74.253973	-16.697010	1.512278	15.781955
2001	3265.515980	74.136132	-16.700587	1.509568	15.820704
2005	3269.688255	73.954256	-16.696373	1.503654	15.591553
2007	3271.775243	73.736942	-16.721795	1.500368	15.202127
2009	3273.861769	73.596466	-16.728470	1.497492	15.690328
2013	3278.036831	73.385030	-16.759290	1.491182	15.646580
2015	3280.125097	73.251893	-16.787954	1.487911	15.007032
2017	3282.212846	73.143240	-16.798717	1.484893	15.280930
2021	3286.388686	72.920453	-16.768052	1.478441	16.130727
2023	3288.476911	72.846891	-16.802915	1.475265	15.731537
2025	3290.564177	72.750854	-16.804455	1.472801	15.419639
2029	3294.738304	72.559661	-16.796490	1.468047	15.718327
2031	3296.825299	72.484546	-16.820117	1.465181	15.475011
2033	3298.911960	72.443808	-16.819607	1.462698	15.452312
2037	3303.084340	72.291565	-16.830667	1.457278	15.656389
2039	3305.170596	72.162351	-16.877796	1.454000	15.651260
2041	3307.256369	72.108437	-16.909827	1.450571	15.176528
2045	3311.428319	71.991514	-16.927550	1.444107	14.480292
2047	3313.514499	71.803340	-16.939207	1.440561	14.412552
2049	3315.600508	71.682352	-16.938268	1.437502	14.919528
2053	3319.774828	71.460775	-16.949013	1.431544	14.571631
2055	3321.862160	71.329644	-16.970836	1.428173	14.597941
2057	3323.949734	71.224436	-16.976731	1.425261	14.517454
2061	3328.125744	71.051825	-16.967421	1.419522	14.125990
2063	3330.213912	70.900420	-17.005269	1.416186	14.429977
2065	3332.301184	70.771250	-16.984927	1.412723	14.781161
2069	3336.476154	70.600432	-16.986529	1.407651	14.679599
2071	3338.563186	70.535730	-17.014600	1.405121	14.678112
2073	3340.649950	70.428949	-16.997126	1.402515	14.952041
2077	3344.823691	70.299400	-16.970510	1.397868	14.573238
2079	3346.909932	70.205420	-17.024310	1.394529	14.191268
2081	3348.996117	70.123387	-17.024542	1.391761	13.869254
2085	3353.168154	69.985344	-17.067329	1.385046	13.948462
2087	3355.254119	69.893943	-17.068106	1.381681	14.089137
2089	3357.340248	69.843327	-17.086600	1.378448	13.371062
2093	3361.512886	69.580547	-17.048243	1.372856	13.611619
2095	3363.600077	69.431348	-17.061081	1.369094	13.572983
2097	3365.687702	69.335024	-17.085954	1.365896	13.635158
2101	3369.862717	69.167589	-17.068239	1.359999	13.705202
2103	3371.950716	69.037670	-17.082304	1.356461	13.605804
2105	3374.038518	68.927860	-17.095973	1.353577	14.028264
2109	3378.213813	68.756641	-17.029061	1.347967	14.057490
2111	3380.300952	68.630377	-17.065096	1.345373	14.269753
2113	3382.387732	68.539794	-17.070130	1.342850	13.754399
2117	3386.561385	68.367723	-17.071317	1.338022	13.893201
2119	3388.648040	68.301102	-17.075868	1.335631	13.738802
2121	3390.734797	68.204265	-17.068733	1.332802	13.927741
2125	3394.907337	68.145316	-17.111971	1.326768	13.074232
2127	3396.993199	68.047558	-17.134840	1.322719	13.351403
2129	3399.079211	67.963150	-17.154588	1.319306	13.004609
2133	3403.251855	67.802016	-17.154107	1.313206	13.058466
2135	3405.338414	67.674483	-17.170372	1.309638	12.742790
2137	3407.425344	67.548158	-17.160241	1.306404	12.978969
2141	3411.600536	67.369258	-17.145506	1.300773	12.988594
2143	3413.688203	67.240990	-17.172977	1.297164	12.553478
2145	3415.775481	67.140138	-17.182327	1.294175	12.666233
2149	3419.950735	66.951816	-17.114193	1.288601	13.010507
2151	3422.038512	66.841794	-17.159104	1.285788	12.972140
2153	3424.125654	66.743313	-17.133340	1.283295	12.920261
2157	3428.299334	66.548451	-17.110751	1.278438	13.244590
2159	3430.386202	66.491860	-17.149309	1.275940	13.718700
2161	3432.472842	66.420582	-17.144634	1.273175	13.141612
2165	3436.645578	66.272424	-17.161797	1.267453	12.717493
2167	3438.731979	66.242689	-17.193507	1.264086	12.671290
2169	3440.817274	66.183307	-17.198756	1.260537	13.164060
2173	3444.990322	66.014076	-17.180076	1.254169	12.088489
2175	3447.077137	65.943893	-17.198354	1.250718	12.065741
2177	3449.163378	65.837500	-17.200328	1.247611	12.345658
2181	3453.337480	65.619321	-17.181715	1.241345	11.702581
2183	3455.425469	65.548040	-17.203483	1.238091	11.833671
2185	3457.512700	65.437432	-17.181705	1.234975	12.212570
2189	3461.688324	65.193920	-17.146366	1.229576	12.442499
2191	3463.775607	65.130632	-17.161733	1.226518	11.979794
2193	3465.862781	65.055095	-17.145591	1.223787	12.669953
2197	3470.036733	64.891421	-17.092994	1.218853	12.449668
2199	3472.123945	64.799205	-17.137893	1.215910	13.132008
2201	3474.210137	64.737327	-17.137290	1.213571	12.638215
2205	3478.383898	64.584104	-17.146694	1.208220	12.157264
2207	3480.470107	64.548281	-17.180635	1.205421	12.165385
2209	3482.556604	64.469363	-17.196440	1.201891	12.244880
2213	3486.728519	64.350333	-17.175369	1.195992	11.470006
2215	3488.815178	64.296524	-17.223886	1.191747	11.312568
2217	3490.901559	64.191371	-17.215493	1.188741	11.465048
2221	3495.075337	64.018036	-17.215045	1.182247	11.562490
2223	3497.162328	63.919269	-17.210311	1.179198	11.789219
2225	3499.249584	63.834407	-17.214603	1.176050	11.650353
2229	3503.424852	63.606877	-17.161410	1.170840	11.339503
2231	3505.512193	63.558679	-17.202388	1.167238	11.862055
2233	3507.599688	63.387644	-17.179512	1.164803	12.032267
2237	3511.773831	63.236495	-17.094708	1.159705	11.812495
2239	3513.860515	63.140931	-17.130999	1.157011	11.783822
2241	3515.947804	63.089557	-17.122244	1.154534	12.154697
2245	3520.121199	62.912060	-17.066505	1.150001	11.475629
2247	3522.207960	62.853676	-17.123563	1.146964	11.485570
2249	3524.294558	62.761396	-17.142440	1.144382	11.569226
2253	3528.467088	62.689140	-17.114470	1.138115	11.280801
2255	3530.553394	62.618294	-17.147884	1.134470	11.318775
2257	3532.640093	62.550335	-17.150762	1.131138	11.294234
2261	3536.812998	62.392172	-17.106180	1.125149	11.040235
2263	3538.899901	62.299998	-17.124797	1.121656	11.123640
2267	3543.073585	62.104560	-17.131123	1.115400	10.766077
2269	3545.161725	62.023381	-17.109820	1.112241	11.221831
2271	3547.248955	61.929785	-17.108784	1.109421	11.030006
2275	3551.423554	61.728320	-17.011281	1.104826	11.045121
2277	3553.511022	61.650890	-17.064530	1.101582	11.384975
2279	3555.598147	61.564267	-17.021318	1.099081	11.270535
2283	3559.770955	61.401520	-16.957173	1.094253	11.367403
2285	3561.858816	61.350753	-16.993540	1.091730	11.508069
2287	3563.945432	61.281418	-16.975660	1.089281	10.939577
2291	3568.118738	61.113903	-16.963335	1.084157	10.938612
2293	3570.204658	61.150979	-16.965437	1.081252	11.063091
2295	3572.291063	61.091726	-16.987628	1.077594	10.788526
