num crossings	time (s)	maj axis (mm)	min axis (mm)	theta (rad )	slope (V/s)
10249	72204.237017	99.838178	-17.999972	1.080843	142.351667
10251	72206.308254	99.832111	-17.853598	1.079325	141.212516
10253	72208.379762	99.582335	-17.781671	1.077284	140.950764
10257	72212.520682	99.643081	-17.706079	1.070091	146.694784
10259	72214.588939	99.771677	-17.624654	1.063779	144.053614
10261	72216.657254	99.877796	-17.573129	1.054832	134.974015
10263	72218.726042	99.382515	-17.425411	1.051100	141.250121
10265	72220.795265	99.235613	-17.293931	1.047814	139.800980
10269	72224.936462	98.889395	-17.086225	1.042594	143.449022
10271	72227.006975	98.903978	-17.001367	1.039290	140.202660
10275	72231.147676	98.681265	-16.815274	1.032337	143.901713
10277	72233.217300	98.637980	-16.742717	1.028677	135.943772
10279	72235.286926	98.495750	-16.660129	1.025153	144.830639
10281	72237.356106	98.474076	-16.594128	1.022415	146.270267
10285	72241.494902	97.970680	-16.456752	1.016157	143.052259
10287	72243.564754	98.085707	-16.441258	1.012890	144.537500
10289	72245.635181	97.845450	-16.350385	1.008368	145.074006
10291	72247.706601	97.706271	-16.301410	1.003175	140.108064
10295	72251.849152	97.482340	-16.153714	0.993354	141.793048
10297	72253.919393	97.438588	-16.059328	0.988992	147.297607
10299	72255.988761	97.482184	-15.955189	0.986966	147.671867
10301	72258.056958	97.474890	-15.846074	0.986154	140.051715
10303	72260.125309	97.604059	-15.792093	0.983410	141.914589
10307	72264.263250	96.825469	-15.660685	0.978050	141.750731
10309	72266.333102	96.945296	-15.657671	0.974204	139.413545
10311	72268.402991	96.778180	-15.584187	0.969994	138.711990
10313	72270.472931	96.743451	-15.525054	0.966085	139.316595
10317	72274.612544	96.313311	-15.312230	0.957934	138.215698
10319	72276.682505	96.357703	-15.287430	0.954549	138.421030
10321	72278.752835	96.239592	-15.202382	0.952249	143.649459
10323	72280.823856	95.987041	-15.086151	0.949875	145.332971
10325	72282.895237	95.915243	-15.021247	0.947151	138.735443
10329	72287.036880	95.741944	-14.949048	0.943353	157.614009
10331	72289.106318	95.724714	-14.918682	0.940239	135.126837
10333	72291.175225	95.735487	-14.878433	0.935523	145.777799
10335	72293.243800	95.563033	-14.785483	0.930522	136.752134
10339	72297.381181	95.243591	-14.633392	0.921337	135.862957
10341	72299.450274	95.175956	-14.582660	0.918344	138.856298
10343	72301.519757	95.041324	-14.510695	0.915301	141.766552
10345	72303.589458	94.910287	-14.444901	0.912988	141.883598
10347	72305.659216	94.703197	-14.371649	0.910679	148.258593
10351	72309.798726	94.449821	-14.234179	0.905174	143.532580
10353	72311.868431	94.469194	-14.214661	0.902521	132.763731
10355	72313.938367	94.331817	-14.157861	0.899985	136.999808
10357	72316.008099	94.109355	-14.116598	0.896706	136.774152
10359	72318.078038	94.042750	-14.074174	0.893884	139.216131
10363	72322.218964	93.753271	-13.955253	0.887205	139.832364
10365	72324.289621	93.753749	-13.953696	0.884118	136.961031
10367	72326.360530	93.575682	-13.889767	0.880771	135.450175
10369	72328.431279	93.717869	-13.834422	0.876407	138.853284
10371	72330.501775	93.321057	-13.765253	0.874136	140.131093
10375	72334.640673	93.291940	-13.593745	0.868713	134.326824
10377	72336.709283	93.199285	-13.522351	0.867099	142.343323
10379	72338.777527	93.197431	-13.480095	0.865899	133.020929
10381	72340.846291	93.045917	-13.426078	0.864226	135.719848
10383	72342.915151	92.805697	-13.371686	0.861763	140.461966
10387	72347.054047	92.462026	-13.270129	0.855079	132.863264
10389	72349.123878	92.525092	-13.271710	0.851748	132.471439
10391	72351.193387	92.370498	-13.198247	0.848751	134.522081
10393	72353.263413	92.190484	-13.110071	0.845899	137.562203
10395	72355.333757	92.092501	-13.075090	0.842883	133.228641
10399	72359.474966	91.791994	-12.948979	0.839099	137.598802
10401	72361.546027	91.690581	-12.929592	0.836573	132.825484
10403	72363.616793	91.514708	-12.885650	0.834982	139.766716
10405	72365.686891	91.487871	-12.892058	0.832768	132.462723
10407	72367.756376	91.348076	-12.852186	0.830792	136.065272
10411	72371.894470	91.167621	-12.772151	0.823434	134.724693
10413	72373.963133	91.171421	-12.757898	0.819723	133.081481
10415	72376.031932	91.051531	-12.709493	0.815904	134.698794
10417	72378.100865	90.936511	-12.683287	0.812908	133.357127
10419	72380.169793	90.874665	-12.612739	0.810555	136.150462
10423	72384.308640	90.391295	-12.472390	0.805487	139.425171
10425	72386.377875	90.409311	-12.486915	0.803436	130.131319
10427	72388.447550	90.287937	-12.460814	0.801453	133.030468
10429	72390.517165	90.117857	-12.410713	0.799276	131.372919
10431	72392.586949	90.048842	-12.398583	0.796960	134.402533
10435	72396.727012	89.821651	-12.344812	0.792611	131.669785
10437	72398.797232	89.713941	-12.326872	0.790067	132.328211
10439	72400.867621	89.564789	-12.285753	0.788422	133.423418
10441	72402.938024	89.378911	-12.228517	0.785866	134.751417
10443	72405.008394	89.249574	-12.204503	0.783367	130.949271
10447	72409.148425	88.939469	-12.073523	0.777873	131.912391
10449	72411.217871	88.918636	-12.027362	0.775753	128.012615
10451	72413.286583	88.572404	-11.957058	0.774365	133.829554
10453	72415.355154	88.768551	-11.902953	0.772782	129.344266
10455	72417.423643	88.748554	-11.881791	0.771574	128.788838
10457	72419.491940	88.599676	-11.870073	0.769991	131.365702
10459	72421.560898	88.546867	-11.815163	0.768793	128.465695
10461	72423.629890	88.402824	-11.800514	0.766025	131.294488
10463	72425.699341	88.261744	-11.759418	0.763624	132.930902
10465	72427.768918	88.111534	-11.716033	0.760843	131.853217
10467	72429.838477	87.941475	-11.657624	0.758642	126.436431
10469	72431.908351	87.708507	-11.597194	0.756318	129.700715
10471	72433.978643	87.726029	-11.599092	0.754021	129.091977
10473	72436.048865	87.668267	-11.563975	0.752093	130.212743
10475	72438.119418	87.365117	-11.528069	0.750218	129.725748
10477	72440.190288	87.453621	-11.512793	0.746707	131.247039
10479	72442.260612	87.120481	-11.477970	0.746822	124.097879
10481	72444.330724	86.993393	-11.472670	0.744911	129.710659
10485	72448.469608	86.761383	-11.383597	0.741292	129.940854
10487	72450.538724	86.729236	-11.388100	0.738663	131.280318
10489	72452.607549	86.518572	-11.362576	0.735976	128.454919
10493	72456.745490	86.512698	-11.339397	0.730026	129.306184
10495	72458.814499	86.369043	-11.293828	0.727406	125.448786
10497	72460.883787	86.277444	-11.290237	0.725034	125.702612
10501	72465.022388	85.966177	-11.189259	0.721382	124.117014
10503	72467.092055	85.818341	-11.179738	0.719121	125.045444
10505	72469.161697	85.726421	-11.152393	0.717513	129.707767
10507	72471.231713	85.605148	-11.143029	0.715325	124.213597
10509	72473.301565	85.521482	-11.154538	0.713549	123.381781
10511	72475.371764	85.389394	-11.100883	0.711652	123.293556
10515	72479.512093	85.027025	-11.002375	0.707708	123.514177
10517	72481.582131	84.916576	-10.976118	0.705550	122.541898
10519	72483.651854	84.873568	-10.974287	0.703239	125.197374
10521	72485.721510	84.707037	-10.909789	0.700901	122.964572
10523	72487.790681	84.653123	-10.902053	0.699493	129.374526
10525	72489.859560	84.631544	-10.816520	0.697884	124.460759
10529	72493.996554	84.417843	-10.730039	0.695845	120.810243
10531	72496.065083	84.351776	-10.711211	0.694282	127.776651
10533	72498.133941	84.268408	-10.707492	0.692674	117.065600
10535	72500.203057	84.147144	-10.702412	0.690648	125.441396
10537	72502.271983	83.981623	-10.686838	0.688557	119.078095
10539	72504.341774	83.861824	-10.668795	0.686489	121.316355
10541	72506.411474	83.733860	-10.606129	0.684372	122.495271
